freq,psd_x,psd_y,psd_z,psd_xyz
0.0,4.663e+01,3.340e+02,1.406e+02,5.212e+02
1.6,4.409e+01,2.013e+02,1.183e+02,3.637e+02
3.2,1.981e+01,3.832e+01,5.478e+01,1.129e+02
4.8,1.966e+01,4.542e+02,5.044e+01,5.243e+02
6.4,1.890e+01,1.437e+03,4.877e+01,1.505e+03
7.9,2.006e+01,2.351e+03,4.854e+01,2.419e+03
9.5,1.924e+01,3.510e+03,5.465e+01,3.584e+03
11.1,1.970e+01,4.833e+03,6.157e+01,4.914e+03
12.7,2.022e+01,6.537e+03,5.914e+01,6.617e+03
14.3,1.887e+01,8.660e+03,7.270e+01,8.751e+03
15.9,2.072e+01,1.128e+04,1.036e+02,1.140e+04
17.5,2.643e+01,1.477e+04,1.490e+02,1.495e+04
19.1,4.084e+01,1.969e+04,2.390e+02,1.997e+04
20.6,6.839e+01,2.658e+04,4.657e+02,2.711e+04
22.2,7.959e+01,3.634e+04,1.014e+03,3.743e+04
23.8,8.563e+01,5.180e+04,1.894e+03,5.378e+04
25.4,3.533e+02,6.933e+04,3.148e+03,7.284e+04
27.0,1.088e+03,7.901e+04,4.336e+03,8.443e+04
28.6,1.868e+03,7.840e+04,5.334e+03,8.560e+04
30.2,2.525e+03,8.610e+04,7.617e+03,9.624e+04
31.8,4.088e+03,1.065e+05,1.133e+04,1.219e+05
33.3,7.706e+03,1.477e+05,1.609e+04,1.715e+05
34.9,1.414e+04,2.531e+05,2.981e+04,2.970e+05
36.5,2.488e+04,5.698e+05,7.792e+04,6.726e+05
38.1,3.755e+04,1.061e+06,1.793e+05,1.278e+06
39.7,4.407e+04,1.024e+06,2.324e+05,1.300e+06
41.3,5.199e+04,5.417e+05,1.681e+05,7.617e+05
42.9,5.815e+04,2.305e+05,1.211e+05,4.097e+05
44.5,6.629e+04,1.052e+05,1.225e+05,2.940e+05
46.1,7.076e+04,5.948e+04,1.264e+05,2.566e+05
47.6,7.009e+04,3.144e+04,1.279e+05,2.294e+05
49.2,6.918e+04,1.886e+04,1.020e+05,1.900e+05
50.8,4.028e+04,3.514e+04,5.377e+04,1.292e+05
52.4,2.351e+04,6.214e+04,5.365e+04,1.393e+05
54.0,1.428e+04,7.777e+04,5.046e+04,1.425e+05
55.6,9.583e+03,7.847e+04,4.087e+04,1.289e+05
57.2,8.498e+03,6.965e+04,2.879e+04,1.069e+05
58.8,1.028e+04,5.772e+04,1.684e+04,8.485e+04
60.3,1.336e+04,4.309e+04,7.642e+03,6.409e+04
61.9,1.695e+04,3.168e+04,1.387e+04,6.250e+04
63.5,2.228e+04,2.315e+04,3.886e+04,8.430e+04
65.1,3.547e+04,2.446e+04,1.152e+05,1.751e+05
66.7,5.155e+04,4.142e+04,2.301e+05,3.230e+05
68.3,6.184e+04,8.161e+04,3.663e+05,5.098e+05
69.9,5.976e+04,1.498e+05,5.053e+05,7.148e+05
71.5,4.317e+04,1.747e+05,4.762e+05,6.941e+05
73.0,3.426e+04,1.702e+05,4.331e+05,6.376e+05
74.6,2.552e+04,1.460e+05,3.339e+05,5.055e+05
76.2,1.398e+04,1.148e+05,2.033e+05,3.320e+05
77.8,7.709e+03,9.289e+04,1.204e+05,2.210e+05
79.4,4.657e+03,7.647e+04,7.985e+04,1.610e+05
81.0,3.890e+03,6.477e+04,6.180e+04,1.305e+05
82.6,5.437e+03,5.530e+04,5.109e+04,1.118e+05
84.2,6.537e+03,4.797e+04,4.264e+04,9.715e+04
85.8,6.140e+03,4.156e+04,3.520e+04,8.290e+04
87.3,5.841e+03,3.606e+04,2.970e+04,7.160e+04
88.9,7.133e+03,3.221e+04,2.662e+04,6.596e+04
90.5,1.109e+04,2.923e+04,2.551e+04,6.584e+04
92.1,1.771e+04,2.708e+04,2.642e+04,7.120e+04
93.7,2.484e+04,2.617e+04,2.633e+04,7.735e+04
95.3,3.129e+04,2.578e+04,2.350e+04,8.057e+04
96.9,3.170e+04,2.476e+04,2.092e+04,7.738e+04
98.5,2.370e+04,2.264e+04,1.897e+04,6.530e+04
100.0,9.188e+03,2.038e+04,1.644e+04,4.602e+04
101.6,5.245e+03,1.873e+04,1.525e+04,3.922e+04
103.2,4.184e+03,1.717e+04,1.339e+04,3.474e+04
104.8,3.748e+03,1.569e+04,1.085e+04,3.029e+04
106.4,3.616e+03,1.429e+04,8.555e+03,2.646e+04
108.0,4.080e+03,1.316e+04,7.227e+03,2.447e+04
109.6,4.560e+03,1.208e+04,6.291e+03,2.293e+04
111.2,5.302e+03,1.106e+04,5.785e+03,2.215e+04
112.7,6.869e+03,1.028e+04,5.991e+03,2.314e+04
114.3,8.212e+03,9.534e+03,5.337e+03,2.308e+04
115.9,9.077e+03,8.612e+03,4.869e+03,2.256e+04
117.5,9.146e+03,7.243e+03,5.082e+03,2.147e+04
119.1,8.049e+03,6.055e+03,5.111e+03,1.921e+04
120.7,7.284e+03,5.132e+03,5.013e+03,1.743e+04
122.3,6.188e+03,4.389e+03,4.262e+03,1.484e+04
123.9,4.485e+03,4.139e+03,3.841e+03,1.246e+04
125.5,3.664e+03,4.059e+03,3.922e+03,1.165e+04
127.0,3.337e+03,3.941e+03,3.982e+03,1.126e+04
128.6,3.240e+03,3.787e+03,4.041e+03,1.107e+04
130.2,3.399e+03,3.790e+03,4.425e+03,1.161e+04
131.8,3.399e+03,3.422e+03,4.690e+03,1.151e+04
133.4,3.236e+03,1.446e+03,4.332e+03,9.014e+03
135.0,3.174e+03,4.143e+02,4.370e+03,7.958e+03
136.6,3.799e+03,4.008e+02,4.993e+03,9.192e+03
138.2,4.025e+03,4.387e+02,4.926e+03,9.389e+03
139.7,3.415e+03,4.867e+02,3.583e+03,7.484e+03
141.3,2.812e+03,3.997e+02,2.426e+03,5.638e+03
142.9,2.298e+03,3.091e+02,1.933e+03,4.540e+03
144.5,2.232e+03,2.861e+02,1.995e+03,4.514e+03
146.1,2.831e+03,3.723e+02,2.623e+03,5.826e+03
147.7,3.292e+03,4.425e+02,3.206e+03,6.940e+03
149.3,1.201e+03,1.964e+02,1.518e+03,2.916e+03
150.9,6.165e+02,1.860e+02,6.569e+02,1.459e+03
152.4,6.392e+02,1.854e+02,5.397e+02,1.364e+03
154.0,7.931e+02,1.962e+02,5.063e+02,1.496e+03
155.6,6.801e+02,1.604e+02,4.784e+02,1.319e+03
157.2,5.607e+02,1.159e+02,5.045e+02,1.181e+03
158.8,5.266e+02,9.997e+01,5.003e+02,1.127e+03
160.4,5.406e+02,9.465e+01,4.743e+02,1.110e+03
162.0,6.264e+02,7.802e+01,4.514e+02,1.156e+03
163.6,7.754e+02,7.152e+01,5.078e+02,1.355e+03
165.2,6.967e+02,7.727e+01,4.337e+02,1.208e+03
166.7,5.942e+02,7.858e+01,3.272e+02,9.999e+02
168.3,6.694e+02,7.089e+01,3.081e+02,1.048e+03
169.9,7.938e+02,7.135e+01,3.504e+02,1.216e+03
171.5,1.034e+03,6.876e+01,4.105e+02,1.513e+03
173.1,1.412e+03,6.213e+01,4.167e+02,1.891e+03
174.7,2.046e+03,6.228e+01,4.822e+02,2.591e+03
176.3,2.845e+03,5.667e+01,6.077e+02,3.509e+03
177.9,3.737e+03,5.711e+01,7.642e+02,4.559e+03
179.4,4.111e+03,6.106e+01,9.247e+02,5.097e+03
181.0,3.923e+03,6.358e+01,1.008e+03,4.995e+03
182.6,4.134e+03,8.447e+01,1.228e+03,5.447e+03
184.2,4.590e+03,1.031e+02,1.572e+03,6.264e+03
185.8,4.565e+03,9.448e+01,1.591e+03,6.250e+03
187.4,4.739e+03,9.109e+01,1.509e+03,6.338e+03
189.0,5.133e+03,1.151e+02,1.661e+03,6.909e+03
190.6,5.195e+03,1.603e+02,1.835e+03,7.190e+03
192.2,4.487e+03,1.901e+02,1.807e+03,6.485e+03
193.7,3.334e+03,1.917e+02,1.503e+03,5.029e+03
195.3,2.538e+03,1.940e+02,1.370e+03,4.102e+03
196.9,1.763e+03,1.684e+02,1.236e+03,3.167e+03
198.5,6.575e+02,1.115e+02,6.306e+02,1.400e+03
